! o/p-H2 - ortho/para ratio of molecular hydrogen;
! o_hcoll - ortho-H2 formation rate due to collisions with H atoms, para-H2 rate = -ortho-H2 rate, [cm-3 s-1]
! h2_gr - H2 formation rate on grains, [cm-3 s-1]
! h2_gasf - H2 formation rate due to gas-phase chemistry, [cm-3 s-1]
! h2_gasd - H2 destruction rate due to gas-phase chemistry, [cm-3 s-1]
! h2_h_diss - H2 dissociation rate in H2-H collisions, [cm-3 s-1]
! h2_h2_diss - H2 dissociation rate in H2-H2 collisions, [cm-3 s-1]
! h2_e_diss - H2 dissociation rate in H2-e collisions, [cm-3 s-1]
! h2_i_diss - H2 dissociation rate by ions using the method by Wilgenbus et al. (2000)
!    0            1            2            3            4            5            6            7            8            9            10           
! depth(cm)       o/p-H2       o_hcoll      h2_gr        h2_gasf      h2_gasd      h2_h_diss    h2_h2_diss   vh2_vh2_diss h2_e_diss    h2_i_diss    
2.8411269634e+15  9.2640e-02   -8.6108e-12  1.9614e-12   8.5776e-13   2.9455e-12   9.4842e-19   5.0713e-26   5.0713e-26   0.0000e+00   4.3510e-133  
6.9227187388e+15  9.2633e-02   -8.6163e-12  1.9618e-12   8.5763e-13   2.9456e-12   9.4863e-19   5.0727e-26   5.0727e-26   0.0000e+00   4.4016e-133  
1.7818840672e+16  9.2614e-02   -8.6312e-12  1.9629e-12   8.5729e-13   2.9458e-12   9.4923e-19   5.0773e-26   5.0773e-26   0.0000e+00   4.5707e-133  
4.4016872081e+16  9.2568e-02   -8.6738e-12  1.9672e-12   8.5656e-13   2.9467e-12   9.5132e-19   5.0946e-26   5.0946e-26   0.0000e+00   5.5152e-133  
7.6502283841e+16  9.2511e-02   -8.7901e-12  1.9806e-12   8.5561e-13   2.9494e-12   9.5749e-19   5.1512e-26   5.1512e-26   0.0000e+00   1.8565e-132  
1.0837271321e+17  9.2452e-02   -9.4030e-12  2.0264e-12   8.5185e-13   2.9564e-12   9.8123e-19   5.3701e-26   5.3701e-26   0.0000e+00   1.1799e-128  
1.1645629013e+17  9.2436e-02   -9.8505e-12  2.0528e-12   8.4938e-13   2.9595e-12   9.9651e-19   5.5089e-26   5.5089e-26   0.0000e+00   7.6433e-126  
1.2458234407e+17  9.2419e-02   -1.0534e-11  2.0924e-12   8.4588e-13   2.9636e-12   1.0210e-18   5.7304e-26   5.7304e-26   0.0000e+00   2.1881e-121  
1.3283131625e+17  9.2400e-02   -1.1615e-11  2.1534e-12   8.4187e-13   2.9695e-12   1.0623e-18   6.1012e-26   6.1012e-26   0.0000e+00   1.7005e-114  
1.3444504594e+17  9.2396e-02   -1.1874e-11  2.1687e-12   8.4113e-13   2.9710e-12   1.0732e-18   6.1990e-26   6.1990e-26   0.0000e+00   8.2155e-113  
1.3641488940e+17  9.2391e-02   -1.2206e-11  2.1889e-12   8.4030e-13   2.9730e-12   1.0879e-18   6.3316e-26   6.3316e-26   0.0000e+00   1.3023e-110  
1.3855026205e+17  9.2386e-02   -1.2569e-11  2.2132e-12   8.3945e-13   2.9754e-12   1.1060e-18   6.4948e-26   6.4948e-26   0.0000e+00   4.9552e-108  
1.4078121698e+17  9.2380e-02   -1.2913e-11  2.2414e-12   8.3861e-13   2.9781e-12   1.1279e-18   6.6922e-26   6.6922e-26   0.0000e+00   4.1650e-105  
1.4309957419e+17  9.2373e-02   -1.3187e-11  2.2742e-12   8.3800e-13   2.9813e-12   1.1547e-18   6.9329e-26   6.9329e-26   0.0000e+00   8.1265e-102  
1.4543518850e+17  9.2367e-02   -1.3282e-11  2.3108e-12   8.3774e-13   2.9851e-12   1.1858e-18   7.2136e-26   7.2136e-26   0.0000e+00   2.7476e-98   
1.4814869022e+17  9.2359e-02   -1.2923e-11  2.3584e-12   8.3805e-13   2.9902e-12   1.2293e-18   7.6050e-26   7.6050e-26   0.0000e+00   6.7358e-94   
